Time (s),Distance (m)
0.02,1.04
0.04,1.05
0.06,1.08
0.08,1.1
0.1,1.12
0.12,1.15
0.14,1.17
0.16,1.2
0.18,1.21
0.2,1.23
0.22,1.25
0.25,1.29
0.26,1.3
0.28,1.32
0.3,1.35
0.33,1.38
0.34,1.41
0.36,1.44
0.38,1.48
0.4,1.49
0.42,1.51
0.44,1.54
0.46,1.55
0.48,1.58
0.5,1.61
0.52,1.64
0.54,1.66
0.56,1.68
0.58,1.7
0.6,1.72
0.62,1.74
0.65,1.77
0.66,1.78
0.68,1.81
0.7,1.84
0.73,1.85
0.74,1.86
0.76,1.89
0.78,1.92
0.8,1.94
0.82,1.97
0.84,1.99
0.86,2.02
0.88,2.06
0.9,2.08
0.92,2.14
0.94,2.17
0.96,2.18
0.98,2.22
1.01,2.25
1.02,2.27
1.04,2.29
1.06,2.32
1.09,2.34
1.1,2.35
1.12,2.38
1.14,2.42
1.17,2.46
1.18,2.47
1.2,2.48
1.22,2.5
1.24,2.53
1.26,2.54
1.28,2.57
1.3,2.59
1.32,2.61
1.34,2.63
1.36,2.65
1.38,2.69
1.4,2.72
1.42,2.75
1.44,2.77
1.46,2.79
1.48,2.82
1.5,2.84
1.52,2.86
1.54,2.89
1.56,2.91
1.58,2.93
1.6,2.96
1.62,2.98
1.65,3.01
1.66,3.02
1.68,3.04
1.7,3.06
1.72,3.08
1.74,3.09
1.76,3.11
1.78,3.13
1.8,3.16
1.82,3.17
1.84,3.21
1.86,3.24
1.88,3.25
1.9,3.28
1.92,3.32
1.94,3.35
1.96,3.38
1.98,3.39
2.0,3.43
2.02,3.45
2.04,3.47
2.06,3.51
2.08,3.52
2.1,3.57
2.12,3.57
2.14,3.61
2.17,3.63
2.18,3.65
2.21,3.69
2.22,3.69
2.24,3.71
2.26,3.74
2.28,3.77
2.3,3.8
2.32,3.82
2.34,3.84
2.36,3.86
2.38,3.9
2.4,3.92
2.42,3.95
2.44,3.98
2.46,4.0
2.48,4.03
2.5,4.05
2.52,4.08
2.54,4.11
2.56,4.15
2.58,4.18
2.6,4.2
2.62,4.22
2.64,4.25
2.66,4.26
2.68,4.29
2.7,4.33
2.72,4.32
2.74,4.35
2.76,4.38
2.78,4.38
2.8,4.42
2.82,4.43
2.84,4.46
2.86,4.48
2.88,4.5
2.9,4.53
2.92,4.53
2.94,4.58
2.96,4.6
2.98,4.63
3.0,4.67
3.02,4.7
3.04,4.72
3.06,4.73
3.08,4.77
3.1,4.79
3.12,4.81
3.14,4.85
3.17,4.87
3.18,4.89
3.2,4.89
3.22,4.94
3.24,4.97
3.26,4.99
3.28,5.01
3.3,5.02
3.32,5.05
3.34,5.07
3.37,5.1
3.38,5.11
3.4,5.16
3.42,5.16
3.44,5.19
3.46,5.2
3.48,5.24
3.5,5.26
3.52,5.29
3.54,5.32
3.56,5.35
3.58,5.37
3.6,5.4
3.62,5.42
3.64,5.48
3.66,5.46
3.68,5.52
3.7,5.53
3.72,5.57
3.74,5.57
3.76,5.59
3.78,5.61
3.8,5.63
3.82,5.67
3.84,5.69
3.86,5.73
3.88,5.73
3.9,5.79
3.92,5.79
3.94,5.81
3.96,5.84
3.98,5.84
4.0,5.87
4.02,5.9
4.04,5.91
4.06,5.95
4.08,5.99
4.1,6.0
4.12,6.03
4.14,6.05
4.16,6.1
4.18,6.12
4.2,6.13
4.22,6.15
4.24,6.19
4.26,6.21
4.28,6.24
4.3,6.24
4.32,6.28
4.34,6.29
4.36,6.33
4.38,6.35
4.4,6.37
4.42,6.39
4.44,6.4
4.46,6.43
4.48,6.46
4.5,6.48
4.52,6.49
4.54,6.52
4.57,6.56
4.58,6.58
4.6,6.62
4.62,6.65
4.64,6.69
4.66,6.7
4.68,6.73
4.7,6.74
4.72,6.78
4.74,6.79
4.76,6.82
4.78,6.84
4.8,6.86
4.82,6.89
4.84,6.92
4.86,6.97
4.88,6.98
4.9,6.98
4.92,7.01
4.94,7.04
4.96,7.06
4.98,7.09
5.0,7.09
5.02,7.13
5.04,7.16
5.06,7.2
5.08,7.22
5.1,7.25
5.12,7.26
5.14,7.3
5.16,7.31
5.18,7.34
5.2,7.39
5.22,7.4
5.24,7.41
5.26,7.45
5.28,7.46
5.3,7.48
5.32,7.51
5.34,7.53
5.36,7.55
5.38,7.58
5.4,7.59
5.42,7.61
5.44,7.64
5.46,7.64
5.48,7.67
5.5,7.7
5.52,7.74
5.54,7.74
5.57,7.77
5.58,7.8
5.6,7.83
5.62,7.84
5.64,7.89
5.66,7.92
5.68,7.94
5.7,7.96
5.72,8.01
5.74,8.02
5.76,8.03
5.78,8.07
5.8,8.1
5.82,8.11
5.84,8.16
5.86,8.17
5.88,8.18
5.9,8.21
5.92,8.24
5.94,8.26
5.96,8.28
5.98,8.31
6.0,8.32
6.02,8.34
6.04,8.34
6.06,8.38
6.08,8.43
6.1,8.42
6.12,8.49
6.14,8.49
6.16,8.51
6.18,8.54
6.2,8.57
6.22,8.59
6.24,8.62
6.26,8.63
6.28,8.66
6.3,8.68
6.32,8.74
