Time (s),Distance (m)
0.02,1.04
0.04,1.05
0.06,1.07
0.08,1.1
0.1,1.14
0.12,1.16
0.14,1.19
0.16,1.21
0.18,1.23
0.2,1.26
0.22,1.29
0.24,1.31
0.26,1.32
0.28,1.36
0.3,1.4
0.32,1.44
0.34,1.46
0.36,1.48
0.38,1.53
0.4,1.56
0.42,1.59
0.44,1.64
0.47,1.67
0.48,1.69
0.5,1.72
0.52,1.75
0.54,1.77
0.56,1.81
0.58,1.84
0.6,1.88
0.62,1.9
0.64,1.93
0.66,1.94
0.68,1.98
0.7,2.01
0.72,2.04
0.74,2.06
0.76,2.12
0.78,2.16
0.8,2.19
0.82,2.22
0.84,2.25
0.86,2.29
0.88,2.33
0.9,2.37
0.92,2.43
0.94,2.45
0.96,2.48
0.98,2.5
1.0,2.55
1.02,2.57
1.04,2.6
1.06,2.62
1.08,2.65
1.1,2.69
1.12,2.72
1.14,2.75
1.16,2.79
1.18,2.81
1.2,2.84
1.22,2.86
1.24,2.9
1.26,2.94
1.28,2.99
1.3,3.02
1.32,3.05
1.34,3.07
1.36,3.1
1.38,3.11
1.4,3.14
1.42,3.18
1.44,3.2
1.46,3.23
1.48,3.27
1.5,3.29
1.52,3.31
1.54,3.35
1.56,3.38
1.58,3.39
1.6,3.42
1.62,3.45
1.64,3.49
1.66,3.53
1.68,3.56
1.7,3.6
1.72,3.64
1.74,3.66
1.76,3.69
1.78,3.72
1.8,3.76
1.82,3.79
1.84,3.82
1.86,3.85
1.88,3.89
1.9,3.89
1.92,3.94
1.94,3.97
1.96,4.01
1.98,4.01
2.0,4.05
2.02,4.07
2.04,4.11
2.06,4.13
2.08,4.17
2.1,4.19
2.12,4.24
2.14,4.26
2.16,4.31
2.18,4.32
2.2,4.34
2.22,4.38
2.24,4.4
2.26,4.44
2.28,4.48
2.3,4.5
2.32,4.53
2.34,4.57
2.36,4.59
2.38,4.61
2.4,4.64
2.42,4.68
2.44,4.71
2.46,4.74
2.48,4.78
2.5,4.8
2.52,4.85
2.54,4.86
2.56,4.89
2.58,4.92
2.6,4.95
2.62,4.98
2.64,5.02
2.66,5.05
2.68,5.07
2.7,5.1
2.72,5.15
2.74,5.17
2.76,5.19
2.78,5.2
2.8,5.24
2.82,5.27
2.84,5.3
2.86,5.33
2.88,5.38
2.9,5.4
2.92,5.42
2.94,5.45
2.96,5.47
2.98,5.51
3.0,5.54
3.02,5.56
3.04,5.59
3.06,5.63
3.08,5.67
3.1,5.7
3.12,5.71
3.14,5.75
3.16,5.79
3.18,5.83
3.2,5.84
3.22,5.86
3.24,5.9
3.26,5.91
3.28,5.93
3.3,5.99
3.32,5.99
3.34,6.01
3.36,6.05
3.38,6.07
3.4,6.11
3.42,6.12
3.44,6.16
3.46,6.19
3.48,6.21
3.5,6.27
3.52,6.29
3.54,6.33
3.56,6.36
3.58,6.36
3.6,6.4
3.62,6.43
3.64,6.46
3.66,6.5
3.68,6.51
3.7,6.53
3.72,6.58
3.74,6.6
3.76,6.63
3.78,6.66
3.8,6.69
3.82,6.7
3.84,6.74
3.86,6.76
3.88,6.79
3.9,6.83
3.92,6.86
3.94,6.87
3.96,6.92
3.98,6.97
4.0,6.98
4.02,7.01
4.04,7.07
4.06,7.13
4.08,7.11
4.1,7.16
4.12,7.19
4.14,7.22
4.16,7.25
4.18,7.28
4.2,7.29
4.22,7.34
4.24,7.36
4.26,7.37
4.28,7.37
4.3,7.43
4.32,7.43
4.34,7.49
4.36,7.5
4.38,7.52
4.4,7.57
4.42,7.58
4.44,7.65
4.46,7.63
4.48,7.69
4.5,7.69
4.52,7.74
4.54,7.75
4.56,7.82
4.58,7.82
4.6,7.84
4.62,7.88
4.64,7.91
4.66,7.93
4.68,7.96
4.7,7.95
4.72,8.0
4.74,8.0
4.76,8.03
4.78,8.09
4.8,8.13
4.82,8.15
4.84,8.15
4.86,8.22
4.88,8.26
4.9,8.3
4.92,8.3
4.94,8.36
4.96,8.35
4.98,8.4
5.0,8.42
5.02,8.46
5.04,8.47
5.06,8.5
5.08,8.5
5.1,8.54
5.12,8.57
5.14,8.57
5.16,8.59
5.18,8.64
5.2,8.66
5.22,8.65
5.24,8.69
5.26,8.74
