Time (s),Distance (m)
0.03,1.06
0.04,1.08
0.06,1.12
0.08,1.13
0.1,1.15
0.12,1.17
0.14,1.21
0.16,1.25
0.18,1.27
0.2,1.29
0.22,1.31
0.24,1.34
0.26,1.37
0.28,1.42
0.31,1.45
0.32,1.47
0.34,1.5
0.36,1.56
0.38,1.58
0.4,1.62
0.43,1.66
0.44,1.68
0.46,1.71
0.48,1.75
0.5,1.79
0.52,1.83
0.54,1.89
0.56,1.93
0.58,1.97
0.6,2.02
0.62,2.04
0.64,2.06
0.66,2.09
0.68,2.12
0.7,2.16
0.72,2.18
0.74,2.23
0.76,2.26
0.78,2.28
0.8,2.31
0.82,2.35
0.84,2.41
0.86,2.43
0.88,2.46
0.9,2.49
0.92,2.53
0.95,2.57
0.96,2.58
0.98,2.64
1.0,2.69
1.02,2.74
1.04,2.77
1.06,2.81
1.08,2.84
1.1,2.88
1.12,2.92
1.14,2.95
1.16,2.99
1.18,3.02
1.2,3.05
1.22,3.09
1.24,3.11
1.26,3.14
1.28,3.17
1.3,3.21
1.32,3.25
1.34,3.28
1.36,3.31
1.38,3.36
1.4,3.38
1.42,3.41
1.44,3.43
1.47,3.49
1.48,3.51
1.5,3.56
1.52,3.61
1.54,3.65
1.56,3.69
1.58,3.72
1.6,3.77
1.62,3.8
1.64,3.85
1.66,3.88
1.68,3.92
1.7,3.96
1.72,4.0
1.74,4.02
1.76,4.05
1.78,4.09
1.8,4.12
1.82,4.16
1.84,4.21
1.86,4.24
1.88,4.28
1.9,4.32
1.92,4.35
1.94,4.39
1.96,4.41
1.98,4.45
2.0,4.51
2.02,4.55
2.04,4.59
2.06,4.62
2.08,4.68
2.1,4.71
2.12,4.76
2.14,4.81
2.16,4.85
2.19,4.9
2.2,4.91
2.22,4.95
2.24,4.99
2.26,5.03
2.28,5.07
2.31,5.13
2.32,5.14
2.34,5.19
2.36,5.23
2.38,5.26
2.4,5.29
2.42,5.33
2.44,5.37
2.46,5.42
2.48,5.45
2.5,5.48
2.52,5.53
2.54,5.57
2.56,5.62
2.58,5.68
2.6,5.71
2.62,5.73
2.64,5.78
2.66,5.82
2.68,5.85
2.7,5.88
2.72,5.93
2.74,5.95
2.76,5.98
2.78,6.03
2.8,6.05
2.82,6.11
2.84,6.11
2.86,6.17
2.88,6.19
2.9,6.22
2.92,6.27
2.94,6.29
2.96,6.34
2.98,6.37
3.0,6.43
3.02,6.46
3.04,6.52
3.07,6.56
3.08,6.6
3.1,6.65
3.12,6.68
3.14,6.72
3.16,6.76
3.18,6.8
3.2,6.82
3.22,6.85
3.24,6.88
3.26,6.94
3.28,6.95
3.3,7.01
3.32,7.05
3.34,7.07
3.36,7.09
3.38,7.16
3.4,7.16
3.42,7.23
3.44,7.27
3.46,7.29
3.48,7.37
3.5,7.39
3.52,7.44
3.54,7.48
3.56,7.5
3.59,7.57
3.6,7.59
3.62,7.62
3.64,7.64
3.66,7.69
3.68,7.71
3.7,7.74
3.72,7.83
3.74,7.84
3.76,7.86
3.79,7.88
3.8,7.93
3.82,7.95
3.84,7.98
3.86,8.0
3.88,8.03
3.9,8.07
3.92,8.1
3.94,8.15
3.96,8.17
3.98,8.23
4.0,8.25
4.03,8.31
4.04,8.31
4.06,8.36
4.08,8.41
4.1,8.43
4.12,8.49
4.14,8.5
4.16,8.53
4.18,8.55
4.2,8.6
4.22,8.61
4.24,8.66
4.26,8.68
