Time (s),Distance (m)
0.02,1.07
0.04,1.1
0.06,1.12
0.08,1.15
0.1,1.17
0.12,1.2
0.14,1.24
0.16,1.28
0.18,1.3
0.2,1.36
0.22,1.39
0.24,1.43
0.26,1.47
0.28,1.5
0.3,1.54
0.32,1.58
0.34,1.63
0.36,1.66
0.38,1.69
0.4,1.71
0.42,1.75
0.44,1.78
0.46,1.8
0.48,1.86
0.5,1.89
0.52,1.94
0.54,1.97
0.56,2.01
0.58,2.05
0.6,2.07
0.62,2.12
0.64,2.17
0.66,2.19
0.68,2.24
0.7,2.27
0.72,2.31
0.74,2.36
0.76,2.43
0.78,2.45
0.8,2.5
0.82,2.55
0.84,2.57
0.86,2.6
0.88,2.64
0.9,2.68
0.92,2.74
0.94,2.77
0.96,2.8
0.98,2.83
1.0,2.86
1.02,2.91
1.04,2.96
1.06,2.99
1.08,3.04
1.1,3.06
1.12,3.1
1.14,3.12
1.16,3.17
1.18,3.22
1.2,3.26
1.22,3.3
1.24,3.35
1.26,3.39
1.28,3.42
1.3,3.46
1.32,3.47
1.34,3.53
1.36,3.58
1.38,3.62
1.4,3.63
1.42,3.67
1.44,3.72
1.46,3.75
1.48,3.78
1.5,3.86
1.52,3.89
1.54,3.94
1.56,3.97
1.58,4.02
1.6,4.05
1.62,4.09
1.64,4.13
1.66,4.16
1.68,4.23
1.7,4.27
1.72,4.3
1.74,4.33
1.76,4.36
1.78,4.41
1.8,4.45
1.82,4.48
1.84,4.51
1.86,4.58
1.88,4.6
1.9,4.63
1.92,4.67
1.94,4.72
1.96,4.77
1.98,4.79
2.0,4.84
2.02,4.88
2.04,4.93
2.06,4.97
2.08,5.0
2.1,5.05
2.12,5.08
2.14,5.13
2.16,5.16
2.18,5.21
2.2,5.23
2.23,5.28
2.24,5.33
2.26,5.35
2.28,5.39
2.3,5.43
2.32,5.47
2.34,5.5
2.36,5.54
2.38,5.57
2.4,5.64
2.42,5.67
2.44,5.71
2.46,5.75
2.48,5.79
2.5,5.81
2.52,5.87
2.54,5.91
2.56,5.97
2.58,5.97
2.6,6.03
2.62,6.06
2.64,6.08
2.66,6.13
2.68,6.17
2.7,6.21
2.72,6.23
2.74,6.27
2.76,6.3
2.78,6.36
2.8,6.39
2.82,6.42
2.84,6.49
2.86,6.51
2.88,6.56
2.9,6.58
2.92,6.64
2.94,6.68
2.96,6.71
2.98,6.75
3.0,6.79
3.02,6.82
3.04,6.88
3.06,6.9
3.08,6.96
3.1,7.0
3.12,7.03
3.14,7.06
3.16,7.11
3.19,7.13
3.2,7.16
3.22,7.23
3.24,7.26
3.26,7.28
3.28,7.32
3.3,7.36
3.32,7.41
3.34,7.43
3.36,7.47
3.38,7.52
3.4,7.54
3.42,7.58
3.44,7.64
3.46,7.65
3.48,7.69
3.5,7.73
3.52,7.76
3.54,7.78
3.56,7.82
3.58,7.87
3.6,7.91
3.62,7.94
3.64,7.99
3.66,8.02
3.68,8.05
3.7,8.11
3.72,8.14
3.74,8.17
3.76,8.22
3.79,8.27
3.8,8.29
3.82,8.33
3.84,8.36
3.86,8.41
3.88,8.44
3.9,8.47
3.92,8.54
3.94,8.57
3.96,8.56
3.98,8.63
4.0,8.65
4.02,8.67
