Time (s),Distance (m)
0.03,1.05
0.04,1.06
0.07,1.08
0.08,1.07
0.1,1.09
0.12,1.11
0.14,1.13
0.16,1.15
0.19,1.17
0.2,1.2
0.23,1.22
0.24,1.23
0.26,1.25
0.28,1.27
0.3,1.29
0.32,1.32
0.34,1.35
0.36,1.37
0.38,1.38
0.4,1.41
0.42,1.44
0.44,1.47
0.46,1.49
0.48,1.52
0.5,1.56
0.52,1.6
0.54,1.62
0.56,1.64
0.58,1.67
0.6,1.69
0.62,1.72
0.64,1.74
0.66,1.75
0.68,1.78
0.7,1.82
0.72,1.84
0.74,1.86
0.76,1.88
0.79,1.89
0.8,1.91
0.82,1.93
0.84,1.96
0.86,1.97
0.88,2.0
0.91,2.02
0.92,2.03
0.94,2.06
0.96,2.1
0.98,2.13
1.0,2.14
1.02,2.17
1.04,2.21
1.06,2.24
1.08,2.26
1.1,2.28
1.12,2.32
1.14,2.36
1.16,2.38
1.18,2.41
1.2,2.44
1.22,2.46
1.24,2.48
1.26,2.52
1.28,2.53
1.3,2.54
1.32,2.57
1.35,2.59
1.36,2.6
1.38,2.63
1.4,2.66
1.42,2.68
1.44,2.69
1.46,2.73
1.48,2.76
1.5,2.78
1.52,2.8
1.54,2.83
1.56,2.84
1.59,2.86
1.6,2.9
1.62,2.92
1.64,2.95
1.66,2.96
1.68,3.0
1.71,3.04
1.72,3.06
1.74,3.08
1.76,3.11
1.78,3.13
1.8,3.16
1.82,3.17
1.84,3.19
1.86,3.24
1.88,3.27
1.9,3.29
1.92,3.29
1.94,3.32
1.96,3.35
1.98,3.36
2.0,3.39
2.03,3.41
2.04,3.44
2.06,3.45
2.08,3.46
2.1,3.49
2.12,3.53
2.14,3.55
2.16,3.57
2.18,3.58
2.2,3.62
2.22,3.63
2.24,3.67
2.27,3.69
2.28,3.71
2.3,3.75
2.32,3.76
2.34,3.79
2.36,3.82
2.38,3.84
2.4,3.88
2.42,3.89
2.44,3.92
2.47,3.95
2.48,3.96
2.5,4.0
2.52,4.04
2.54,4.06
2.56,4.09
2.58,4.11
2.6,4.14
2.62,4.16
2.64,4.19
2.66,4.19
2.68,4.22
2.7,4.27
2.72,4.28
2.74,4.31
2.76,4.34
2.78,4.35
2.8,4.37
2.82,4.4
2.84,4.44
2.86,4.46
2.88,4.49
2.9,4.51
2.92,4.56
2.94,4.57
2.96,4.6
2.99,4.61
3.0,4.65
3.02,4.67
3.04,4.7
3.06,4.74
3.08,4.74
3.1,4.78
3.12,4.8
3.14,4.81
3.16,4.83
3.18,4.87
3.2,4.86
3.22,4.88
3.24,4.88
3.26,4.9
3.28,4.94
3.3,4.96
3.32,4.99
3.34,4.99
3.36,5.02
3.38,5.05
3.4,5.08
3.42,5.1
3.44,5.13
3.46,5.14
3.48,5.18
3.5,5.22
3.52,5.22
3.54,5.25
3.56,5.29
3.58,5.32
3.6,5.35
3.62,5.36
3.64,5.39
3.66,5.44
3.68,5.43
3.7,5.48
3.72,5.52
3.74,5.53
3.76,5.55
3.78,5.57
3.8,5.59
3.82,5.63
3.84,5.64
3.86,5.66
3.88,5.68
3.9,5.71
3.92,5.73
3.94,5.76
3.96,5.77
3.98,5.8
4.0,5.85
4.02,5.85
4.04,5.88
4.06,5.92
4.08,5.94
4.1,5.98
4.12,6.0
4.14,6.04
4.16,6.08
4.18,6.08
4.2,6.1
4.22,6.13
4.24,6.14
4.26,6.16
4.28,6.19
4.3,6.2
4.32,6.23
4.35,6.24
4.36,6.27
4.38,6.27
4.4,6.31
4.42,6.32
4.44,6.37
4.46,6.36
4.48,6.39
4.5,6.43
4.52,6.43
4.54,6.47
4.56,6.49
4.58,6.48
4.6,6.53
4.62,6.53
4.64,6.59
4.66,6.61
4.68,6.64
4.7,6.67
4.72,6.7
4.74,6.73
4.76,6.75
4.78,6.77
4.8,6.79
4.82,6.81
4.84,6.86
4.86,6.88
4.88,6.91
4.9,6.92
4.92,6.96
4.94,6.99
4.96,6.99
4.98,6.99
5.0,7.04
5.02,7.07
5.04,7.08
5.06,7.1
5.08,7.11
5.1,7.16
5.12,7.19
5.14,7.22
5.16,7.25
5.18,7.26
5.2,7.27
5.22,7.31
5.24,7.32
5.26,7.36
5.28,7.39
5.3,7.43
5.32,7.46
5.34,7.44
5.36,7.49
5.38,7.51
5.4,7.53
5.42,7.54
5.44,7.57
5.46,7.6
5.48,7.62
5.5,7.63
5.52,7.65
5.54,7.65
5.56,7.67
5.58,7.69
5.6,7.71
5.62,7.75
5.64,7.78
5.66,7.77
5.68,7.8
5.7,7.81
5.72,7.82
5.74,7.87
5.76,7.9
5.78,7.88
5.8,7.97
5.82,7.95
5.84,7.97
5.86,8.0
5.88,8.03
5.9,8.07
5.92,8.09
5.94,8.12
5.96,8.14
5.98,8.16
6.0,8.18
6.02,8.19
6.04,8.24
6.06,8.27
6.08,8.28
6.1,8.29
6.12,8.35
6.14,8.32
6.16,8.35
6.18,8.37
6.2,8.39
6.22,8.43
6.24,8.43
6.26,8.45
6.28,8.47
6.3,8.5
6.32,8.51
6.34,8.53
6.36,8.57
6.38,8.58
6.4,8.59
6.42,8.62
6.44,8.65
6.46,8.64
6.48,8.67
6.5,8.69
