Time (s),Distance (m)
0.02,1.04
0.04,1.06
0.06,1.07
0.08,1.1
0.1,1.11
0.12,1.13
0.14,1.15
0.16,1.18
0.19,1.2
0.2,1.21
0.22,1.23
0.24,1.25
0.26,1.27
0.28,1.31
0.3,1.34
0.32,1.36
0.34,1.38
0.36,1.4
0.38,1.43
0.4,1.45
0.42,1.48
0.44,1.49
0.46,1.52
0.48,1.55
0.5,1.57
0.52,1.6
0.54,1.62
0.56,1.64
0.58,1.66
0.6,1.7
0.62,1.72
0.64,1.76
0.66,1.8
0.68,1.83
0.7,1.85
0.72,1.88
0.74,1.92
0.76,1.94
0.78,1.96
0.8,1.98
0.82,2.01
0.84,2.04
0.86,2.06
0.88,2.09
0.9,2.12
0.92,2.14
0.94,2.16
0.96,2.19
0.98,2.23
1.0,2.22
1.02,2.25
1.04,2.27
1.06,2.29
1.08,2.31
1.1,2.35
1.12,2.38
1.14,2.4
1.16,2.43
1.18,2.45
1.2,2.48
1.22,2.5
1.24,2.52
1.26,2.54
1.28,2.55
1.3,2.57
1.32,2.6
1.34,2.62
1.36,2.64
1.38,2.67
1.4,2.7
1.42,2.72
1.44,2.74
1.46,2.77
1.48,2.8
1.5,2.82
1.52,2.85
1.54,2.87
1.56,2.89
1.58,2.92
1.6,2.94
1.62,2.98
1.64,2.98
1.66,3.03
1.68,3.04
1.7,3.07
1.72,3.1
1.74,3.11
1.76,3.14
1.78,3.18
1.8,3.22
1.82,3.25
1.84,3.28
1.87,3.32
1.88,3.33
1.9,3.37
1.92,3.38
1.94,3.4
1.96,3.44
1.98,3.46
2.0,3.48
2.02,3.51
2.04,3.53
2.06,3.55
2.08,3.58
2.1,3.59
2.12,3.62
2.14,3.64
2.16,3.66
2.18,3.69
2.2,3.7
2.22,3.72
2.24,3.74
2.26,3.77
2.28,3.78
2.3,3.81
2.32,3.84
2.34,3.87
2.36,3.88
2.38,3.92
2.4,3.95
2.42,3.97
2.44,4.0
2.46,4.04
2.48,4.06
2.51,4.09
2.52,4.11
2.54,4.12
2.56,4.16
2.58,4.17
2.6,4.2
2.62,4.22
2.64,4.25
2.66,4.27
2.68,4.31
2.7,4.33
2.72,4.35
2.74,4.37
2.76,4.41
2.78,4.43
2.8,4.46
2.82,4.48
2.84,4.51
2.86,4.53
2.88,4.54
2.9,4.57
2.92,4.6
2.94,4.63
2.96,4.67
2.98,4.69
3.0,4.72
3.02,4.75
3.04,4.78
3.06,4.83
3.08,4.84
3.1,4.86
3.12,4.9
3.15,4.93
3.16,4.95
3.18,4.97
3.2,4.98
3.22,4.99
3.24,5.02
3.26,5.06
3.28,5.1
3.3,5.08
3.32,5.14
3.34,5.15
3.36,5.17
3.38,5.18
3.4,5.21
3.42,5.25
3.44,5.25
3.46,5.28
3.48,5.3
3.5,5.3
3.52,5.36
3.54,5.36
3.56,5.4
3.58,5.39
3.6,5.45
3.62,5.48
3.64,5.51
3.66,5.53
3.68,5.57
3.7,5.57
3.72,5.59
3.74,5.61
3.76,5.65
3.78,5.65
3.8,5.68
3.82,5.71
3.84,5.74
3.86,5.78
3.88,5.78
3.9,5.81
3.92,5.85
3.94,5.88
3.96,5.92
3.98,5.92
4.0,5.95
4.02,5.96
4.04,5.98
4.06,6.03
4.08,6.05
4.1,6.06
4.12,6.09
4.14,6.1
4.16,6.15
4.18,6.15
4.2,6.19
4.22,6.24
4.24,6.26
4.26,6.28
4.28,6.31
4.3,6.35
4.32,6.38
4.34,6.41
4.36,6.45
4.39,6.47
4.4,6.48
4.42,6.51
4.44,6.5
4.46,6.58
4.48,6.56
4.5,6.6
4.52,6.62
4.54,6.66
4.56,6.68
4.58,6.68
4.6,6.68
4.62,6.72
4.64,6.75
4.66,6.75
4.68,6.8
4.7,6.82
4.72,6.84
4.74,6.89
4.76,6.88
4.78,6.9
4.8,6.93
4.82,6.97
4.84,7.0
4.86,7.0
4.88,7.04
4.9,7.1
4.92,7.12
4.94,7.13
4.96,7.17
4.98,7.19
5.0,7.23
5.02,7.25
5.04,7.25
5.06,7.28
5.08,7.31
5.1,7.33
5.12,7.36
5.14,7.37
5.16,7.4
5.18,7.41
5.2,7.43
5.22,7.48
5.24,7.49
5.26,7.5
5.28,7.53
5.3,7.56
5.32,7.6
5.34,7.61
5.36,7.63
5.38,7.64
5.4,7.69
5.42,7.7
5.44,7.73
5.46,7.79
5.48,7.78
5.5,7.82
5.52,7.85
5.54,7.89
5.56,7.92
5.58,7.92
5.6,7.94
5.62,7.98
5.64,7.99
5.66,8.0
5.68,8.02
5.7,8.07
5.72,8.06
5.74,8.12
5.76,8.11
5.78,8.16
5.8,8.18
5.82,8.18
5.84,8.2
5.87,8.23
5.88,8.24
5.9,8.28
5.92,8.27
5.94,8.33
5.96,8.32
5.98,8.35
6.0,8.36
6.02,8.4
6.04,8.4
6.06,8.42
6.08,8.42
6.1,8.51
6.12,8.52
6.14,8.55
6.16,8.54
6.18,8.59
6.2,8.59
6.22,8.63
6.24,8.64
6.26,8.64
6.28,8.66
6.3,8.67
6.32,8.72
