Time (s),Distance (m)
0.02,1.04
0.04,1.06
0.06,1.07
0.08,1.08
0.1,1.09
0.12,1.11
0.14,1.11
0.16,1.14
0.18,1.14
0.2,1.16
0.22,1.18
0.24,1.21
0.26,1.24
0.28,1.25
0.3,1.28
0.32,1.31
0.34,1.34
0.36,1.37
0.38,1.38
0.4,1.4
0.42,1.42
0.44,1.44
0.46,1.48
0.48,1.49
0.5,1.5
0.52,1.53
0.54,1.56
0.56,1.58
0.58,1.6
0.6,1.62
0.62,1.63
0.64,1.64
0.66,1.66
0.68,1.69
0.7,1.7
0.72,1.72
0.74,1.73
0.76,1.76
0.78,1.78
0.8,1.82
0.82,1.83
0.84,1.84
0.86,1.86
0.88,1.88
0.9,1.9
0.92,1.92
0.94,1.94
0.96,1.97
0.98,1.99
1.0,2.02
1.02,2.06
1.04,2.09
1.06,2.11
1.08,2.12
1.1,2.15
1.12,2.18
1.14,2.19
1.16,2.2
1.18,2.21
1.2,2.23
1.22,2.27
1.24,2.28
1.26,2.3
1.28,2.32
1.3,2.34
1.32,2.37
1.34,2.4
1.36,2.4
1.38,2.44
1.4,2.46
1.42,2.47
1.44,2.49
1.46,2.51
1.48,2.52
1.5,2.53
1.52,2.55
1.54,2.58
1.56,2.59
1.58,2.62
1.6,2.63
1.62,2.65
1.64,2.68
1.66,2.7
1.68,2.73
1.7,2.75
1.72,2.76
1.74,2.79
1.76,2.82
1.78,2.83
1.8,2.85
1.82,2.88
1.84,2.89
1.86,2.93
1.88,2.94
1.9,2.95
1.92,2.98
1.94,3.01
1.96,3.04
1.98,3.04
2.0,3.05
2.02,3.07
2.04,3.09
2.06,3.1
2.08,3.11
2.1,3.13
2.12,3.14
2.14,3.17
2.16,3.18
2.18,3.19
2.2,3.22
2.22,3.25
2.24,3.26
2.26,3.29
2.28,3.29
2.3,3.31
2.32,3.37
2.34,3.37
2.36,3.38
2.38,3.41
2.4,3.43
2.42,3.45
2.44,3.47
2.46,3.51
2.48,3.55
2.5,3.55
2.52,3.59
2.54,3.59
2.56,3.62
2.58,3.63
2.6,3.65
2.62,3.67
2.64,3.68
2.66,3.71
2.68,3.73
2.7,3.74
2.72,3.76
2.74,3.78
2.76,3.8
2.78,3.81
2.8,3.85
2.82,3.85
2.84,3.87
2.86,3.92
2.88,3.93
2.9,3.94
2.92,3.95
2.94,3.96
2.96,3.98
2.98,3.99
3.0,4.03
3.02,4.05
3.04,4.06
3.06,4.1
3.08,4.11
3.1,4.14
3.12,4.16
3.14,4.17
3.16,4.19
3.18,4.23
3.2,4.24
3.22,4.26
3.24,4.28
3.26,4.33
3.28,4.32
3.3,4.34
3.32,4.4
3.34,4.39
3.36,4.42
3.38,4.43
3.4,4.45
3.42,4.46
3.44,4.47
3.46,4.48
3.48,4.52
3.5,4.51
3.52,4.56
3.54,4.56
3.56,4.57
3.58,4.59
3.6,4.61
3.62,4.64
3.64,4.63
3.66,4.66
3.68,4.68
3.7,4.7
3.72,4.71
3.74,4.72
3.76,4.76
3.78,4.77
3.8,4.81
3.82,4.83
3.84,4.85
3.86,4.87
3.88,4.9
3.9,4.91
3.92,4.93
3.94,4.95
3.96,4.98
3.98,4.99
4.0,4.99
4.02,5.04
4.04,5.05
4.06,5.05
4.08,5.07
4.1,5.09
4.12,5.13
4.14,5.15
4.16,5.16
4.18,5.18
4.2,5.17
4.22,5.21
4.24,5.22
4.26,5.24
4.28,5.25
4.3,5.27
4.32,5.29
4.34,5.31
4.36,5.32
4.38,5.35
4.4,5.38
4.42,5.4
4.44,5.41
4.46,5.44
4.48,5.47
4.5,5.47
4.52,5.52
4.54,5.53
4.56,5.57
4.58,5.56
4.6,5.61
4.62,5.63
4.64,5.65
4.66,5.67
4.68,5.68
4.7,5.72
4.72,5.74
4.74,5.74
4.76,5.76
4.78,5.78
4.8,5.81
4.82,5.83
4.84,5.82
4.86,5.85
4.88,5.87
4.9,5.87
4.92,5.9
4.94,5.92
4.96,5.92
4.98,5.94
5.0,5.95
5.02,5.97
5.04,6.01
5.06,6.01
5.08,6.03
5.1,6.05
5.12,6.07
5.14,6.1
5.16,6.11
5.18,6.13
5.2,6.13
5.22,6.18
5.24,6.19
5.26,6.22
5.28,6.22
5.3,6.25
5.32,6.25
5.34,6.28
5.36,6.32
5.38,6.36
5.4,6.35
5.42,6.39
5.44,6.39
5.46,6.42
5.48,6.44
5.5,6.45
5.52,6.46
5.54,6.48
5.56,6.49
5.58,6.54
5.6,6.57
5.62,6.56
5.64,6.6
5.66,6.6
5.68,6.63
5.7,6.66
5.72,6.67
5.74,6.69
5.76,6.7
5.78,6.73
5.8,6.73
5.82,6.75
5.84,6.79
5.86,6.81
5.88,6.81
5.9,6.85
5.92,6.85
5.94,6.89
5.96,6.93
5.98,6.93
6.0,6.96
6.02,6.97
6.04,7.0
6.06,7.04
6.08,7.06
6.1,7.08
6.12,7.1
6.14,7.1
6.16,7.1
6.18,7.15
6.2,7.14
6.22,7.18
6.24,7.2
6.26,7.22
6.28,7.24
6.3,7.24
6.32,7.27
6.34,7.26
6.36,7.29
6.38,7.31
6.4,7.33
6.42,7.35
6.44,7.35
6.46,7.41
6.48,7.41
6.5,7.42
6.52,7.44
6.54,7.45
6.56,7.47
6.58,7.48
6.6,7.5
6.62,7.54
6.64,7.55
6.66,7.56
6.68,7.6
6.7,7.64
6.72,7.69
6.74,7.69
6.76,7.71
6.78,7.72
6.8,7.75
6.82,7.77
6.84,7.75
6.86,7.8
6.88,7.84
6.9,7.86
6.92,7.86
6.94,7.87
6.96,7.92
6.98,7.93
7.0,7.93
7.02,7.98
7.04,8.0
7.06,8.02
7.08,8.01
7.1,8.06
7.12,8.02
7.14,8.08
7.16,8.06
7.18,8.09
7.2,8.11
7.22,8.13
7.24,8.12
7.26,8.2
7.28,8.19
7.3,8.2
7.32,8.22
7.34,8.26
7.36,8.29
7.38,8.28
7.4,8.31
7.42,8.33
7.44,8.36
7.46,8.39
7.48,8.41
7.5,8.43
7.52,8.44
7.54,8.43
7.56,8.46
7.58,8.48
7.6,8.49
7.62,8.5
7.64,8.53
7.66,8.53
7.68,8.54
7.7,8.53
7.72,8.58
7.74,8.58
7.76,8.61
7.78,8.59
7.8,8.59
7.82,8.65
7.84,8.62
7.86,8.67
7.88,8.67
7.9,8.68
7.92,8.68
7.94,8.7
