Time (s),Distance (m)
0.02,1.03
0.05,1.04
0.06,1.06
0.08,1.07
0.1,1.1
0.13,1.11
0.14,1.12
0.17,1.15
0.18,1.16
0.2,1.19
0.22,1.22
0.25,1.24
0.26,1.25
0.28,1.26
0.3,1.29
0.32,1.31
0.34,1.32
0.36,1.35
0.38,1.36
0.4,1.38
0.42,1.4
0.44,1.43
0.46,1.45
0.48,1.47
0.5,1.48
0.52,1.5
0.54,1.52
0.56,1.54
0.58,1.56
0.61,1.58
0.62,1.59
0.65,1.61
0.66,1.62
0.68,1.65
0.7,1.67
0.73,1.69
0.74,1.7
0.76,1.72
0.78,1.73
0.81,1.77
0.82,1.79
0.84,1.79
0.86,1.82
0.88,1.84
0.9,1.86
0.93,1.89
0.94,1.93
0.96,1.95
0.98,1.97
1.0,2.0
1.02,2.04
1.04,2.05
1.06,2.06
1.09,2.08
1.1,2.11
1.13,2.15
1.14,2.16
1.16,2.17
1.18,2.2
1.21,2.22
1.22,2.22
1.25,2.26
1.26,2.27
1.28,2.29
1.3,2.29
1.33,2.31
1.34,2.32
1.37,2.35
1.38,2.37
1.41,2.42
1.42,2.44
1.45,2.45
1.46,2.47
1.48,2.48
1.5,2.5
1.52,2.53
1.54,2.56
1.57,2.58
1.58,2.59
1.61,2.63
1.62,2.64
1.64,2.68
1.66,2.7
1.68,2.73
1.7,2.75
1.72,2.77
1.74,2.8
1.76,2.81
1.78,2.82
1.8,2.84
1.82,2.87
1.85,2.88
1.86,2.91
1.88,2.91
1.9,2.91
1.93,2.96
1.94,2.96
1.97,2.99
1.98,2.99
2.01,3.03
2.02,3.05
2.04,3.06
2.06,3.08
2.09,3.11
2.1,3.11
2.12,3.14
2.14,3.15
2.16,3.17
2.18,3.2
2.2,3.24
2.22,3.25
2.24,3.29
2.26,3.3
2.29,3.34
2.3,3.36
2.32,3.38
2.34,3.39
2.37,3.42
2.38,3.45
2.4,3.47
2.42,3.48
2.45,3.5
2.46,3.52
2.49,3.55
2.5,3.56
2.52,3.59
2.54,3.6
2.57,3.61
2.58,3.63
2.61,3.65
2.62,3.65
2.64,3.68
2.66,3.7
2.68,3.72
2.7,3.75
2.72,3.76
2.74,3.78
2.77,3.81
2.78,3.83
2.81,3.85
2.82,3.88
2.85,3.91
2.86,3.94
2.88,3.96
2.9,3.99
2.92,4.01
2.94,4.03
2.97,4.06
2.98,4.08
3.01,4.11
3.02,4.12
3.05,4.17
3.06,4.17
3.08,4.19
3.1,4.22
3.13,4.25
3.14,4.26
3.17,4.28
3.18,4.3
3.2,4.32
3.22,4.33
3.25,4.36
3.26,4.37
3.28,4.39
3.3,4.41
3.32,4.43
3.34,4.44
3.37,4.47
3.38,4.48
3.4,4.51
3.42,4.51
3.44,4.57
3.46,4.58
3.48,4.61
3.5,4.62
3.52,4.65
3.54,4.67
3.56,4.71
3.58,4.73
3.6,4.77
3.62,4.77
3.65,4.8
3.66,4.81
3.69,4.84
3.7,4.86
3.72,4.87
3.74,4.9
3.77,4.91
3.78,4.92
3.8,4.93
3.82,4.96
3.84,4.96
3.86,4.99
3.88,5.0
3.9,5.03
3.92,5.03
3.94,5.05
3.96,5.07
3.98,5.08
4.01,5.08
4.02,5.12
4.05,5.14
4.06,5.17
4.08,5.19
4.1,5.2
4.13,5.23
4.14,5.25
4.16,5.28
4.18,5.29
4.2,5.32
4.22,5.34
4.25,5.36
4.26,5.4
4.28,5.42
4.3,5.44
4.33,5.45
4.34,5.46
4.37,5.48
4.38,5.52
4.4,5.53
4.42,5.54
4.44,5.57
4.46,5.58
4.49,5.61
4.5,5.62
4.53,5.65
4.54,5.66
4.57,5.68
4.58,5.71
4.6,5.7
4.62,5.74
4.65,5.75
4.66,5.77
4.68,5.8
4.7,5.81
4.72,5.82
4.74,5.87
4.76,5.89
4.78,5.92
4.81,5.95
4.82,5.96
4.85,6.03
4.86,6.0
4.89,6.06
4.9,6.06
4.93,6.08
4.94,6.11
4.96,6.13
4.98,6.16
5.01,6.17
5.02,6.18
5.05,6.21
5.06,6.2
5.09,6.22
5.1,6.25
5.13,6.27
5.14,6.27
5.16,6.31
5.18,6.33
5.2,6.32
5.22,6.35
5.25,6.35
5.26,6.38
5.29,6.4
5.3,6.41
5.32,6.44
5.34,6.46
5.37,6.47
5.38,6.5
5.41,6.53
5.42,6.55
5.45,6.56
5.46,6.6
5.48,6.64
5.5,6.66
5.53,6.68
5.54,6.7
5.57,6.73
5.58,6.73
5.6,6.77
5.62,6.78
5.64,6.81
5.66,6.84
5.68,6.85
5.7,6.9
5.73,6.9
5.74,6.93
5.76,6.93
5.78,6.96
5.8,7.0
5.82,7.0
5.85,7.02
5.86,7.05
5.89,7.07
5.9,7.05
5.93,7.1
5.94,7.09
5.97,7.12
5.98,7.16
6.01,7.18
6.02,7.18
6.04,7.22
6.06,7.25
6.09,7.28
6.1,7.31
6.13,7.35
6.14,7.33
6.17,7.38
6.18,7.38
6.21,7.44
6.22,7.44
6.25,7.48
6.26,7.46
6.28,7.49
6.3,7.51
6.32,7.53
6.34,7.53
6.37,7.57
6.38,7.59
6.4,7.59
6.42,7.59
6.44,7.61
6.46,7.63
6.49,7.64
6.5,7.67
6.53,7.69
6.54,7.68
6.57,7.7
6.58,7.71
6.6,7.74
6.62,7.78
6.64,7.79
6.66,7.81
6.68,7.82
6.7,7.87
6.73,7.88
6.74,7.92
6.76,7.94
6.78,7.95
6.81,8.0
6.82,8.01
6.85,8.01
6.86,8.02
6.89,8.07
6.9,8.1
6.93,8.11
6.94,8.15
6.97,8.21
6.98,8.19
7.0,8.2
7.02,8.24
7.05,8.26
7.06,8.28
7.09,8.31
7.1,8.34
7.13,8.37
7.14,8.36
7.16,8.38
7.18,8.39
7.21,8.4
7.22,8.41
7.25,8.46
7.26,8.46
7.28,8.47
7.3,8.49
7.32,8.5
7.34,8.53
7.36,8.56
7.38,8.56
7.41,8.6
7.42,8.62
7.45,8.65
7.46,8.65
7.49,8.68
7.5,8.71
7.52,8.73
